Wavelengths,Flux,Fluxerr
1150.5227,-152.47548,1.737188e-14
1152.1991,-154.91183,1.6952197e-14
1153.8754,-157.37791,1.533666e-14
1155.5515,-159.87433,1.425186e-14
1157.2278,-162.40099,1.37141775e-14
1158.904,-164.9589,1.2844475e-14
1160.5803,-167.54736,1.1791183e-14
1162.2565,-170.1671,1.1532064e-14
1163.9329,-172.81839,1.109993e-14
1165.609,-175.50139,9.126637e-15
1167.2853,-178.21632,8.280739e-15
1168.9617,-180.96342,8.287155e-15
1170.6378,-183.74248,7.47718e-15
1172.3141,-186.5547,6.9641914e-15
1173.9904,-189.39973,6.398943e-15
1175.6666,-192.27771,6.9762527e-15
1177.3428,-195.18915,6.5489966e-15
1179.0192,-198.13445,5.2526876e-15
1180.6954,-201.11346,4.997928e-15
1182.3716,-204.12634,4.52034e-15
1184.048,-207.17383,4.1793533e-15
1185.7241,-210.25546,4.1748975e-15
1187.4004,-213.37216,3.956465e-15
1189.0765,-216.5241,3.6871946e-15
1190.7529,-219.71135,3.5656834e-15
1192.4291,-222.93388,3.5748513e-15
1194.1053,-226.19215,5.942551e-15
1195.7816,-229.48682,3.63355e-15
1197.4579,-232.81816,5.7082935e-15
1199.1342,-236.18517,4.0350524e-15
1200.8104,-239.58913,3.4408094e-15
1202.4867,-243.03024,4.185907e-15
1204.1628,-246.5083,4.136425e-15
1205.8392,-250.02428,9.7402275e-15
1207.5154,-253.57762,1.6299948e-14
1209.1917,-257.16946,5.0183632e-14
1210.868,-260.79886,6.3569446e-13
1212.5442,-264.46695,-9.260145e-17
1214.2205,-268.17377,-9.0292653e-17
1215.8966,-271.9194,-8.8056506e-17
1217.573,-275.70438,4.1313966e-12
1219.2491,-279.5285,3.9100877e-14
1220.9254,-283.3931,2.6204389e-13
1222.6017,-287.29688,1.5661563e-14
1224.278,-291.24115,8.904184e-15
1225.9541,-295.22467,2.7796115e-15
1227.6305,-299.25024,2.1155118e-15
1229.3068,-303.31653,1.9405571e-15
1230.9829,-307.42276,1.9743461e-15
1232.6593,-311.57196,1.8658908e-15
1234.3354,-315.76117,1.8230495e-15
1236.0117,-319.9929,1.802917e-15
1237.688,-324.2661,1.8705037e-15
1239.3643,-328.58224,1.8080778e-15
1241.0405,-332.94128,1.6770495e-15
1242.7168,-337.342,1.698116e-15
1244.3931,-341.78677,1.8288083e-15
1246.0692,-346.27362,1.8164264e-15
1247.7455,-350.80484,1.7829967e-15
1249.4218,-355.37927,1.7488546e-15
1251.098,-359.99817,1.7696645e-15
1252.7743,-364.66037,1.6515753e-15
1254.4506,-369.367,1.7270904e-15
1256.1268,-374.11957,1.65375e-15
1257.803,-378.91513,1.6856002e-15
1259.4794,-383.75748,1.6704687e-15
1261.1555,-388.64383,1.6846214e-15
1262.8318,-393.57654,1.587198e-15
1264.508,-398.55484,1.658136e-15
1266.1843,-403.5779,1.64887e-15
1267.8605,-408.6488,1.7146766e-15
1269.5369,-413.76566,1.5327172e-15
1271.2131,-418.9295,1.6999774e-15
1272.8893,-424.1397,1.8013543e-15
1274.5656,-429.3972,1.6453664e-15
1276.2418,-434.70248,1.7085291e-15
1277.9181,-440.05438,1.674489e-15
1279.5942,-445.45468,1.6503669e-15
1281.2706,-450.90356,1.803844e-15
1282.9469,-456.3996,1.7380764e-15
1284.623,-461.9441,1.8344828e-15
1286.2994,-467.53842,1.7165076e-15
1287.9756,-473.1807,1.6833727e-15
1289.6519,-478.87228,1.9350313e-15
1291.3281,-484.61346,2.2317804e-15
1293.0044,-490.4047,2.2927988e-15
1294.6805,-496.24408,2.7889799e-15
1296.3569,-502.1344,2.5458935e-15
1298.0331,-508.07443,2.7301295e-15
1299.7094,-514.06573,2.7065377e-15
1301.3856,-520.1074,3.0735166e-15
1303.0619,-526.19916,3.1983788e-15
1304.7382,-532.3433,4.8998035e-15
1306.4143,-538.5367,3.809069e-15
1308.0907,-544.7829,5.432976e-15
1309.7668,-551.08075,3.4024807e-15
1311.4431,-557.43005,2.7527713e-15
1313.1195,-563.8329,2.3522353e-15
1314.7957,-570.28546,1.9033093e-15
1316.4719,-576.7931,1.7260176e-15
1318.1482,-583.35065,1.4711575e-15
1319.8245,-589.96344,1.3837404e-15
1321.5006,-596.6285,1.5059027e-15
1323.177,-603.3467,1.5856465e-15
1324.8533,-610.1186,1.6948055e-15
1326.5294,-616.94275,1.6538065e-15
1328.2057,-623.8233,1.6575244e-15
1329.882,-630.75543,1.578375e-15
1331.5582,-637.7438,1.707577e-15
1333.2344,-644.78546,1.9627748e-15
1334.9108,-651.8832,2.1065265e-15
1336.5869,-659.03326,2.3220282e-15
1338.2632,-666.239,2.4266376e-15
1339.9395,-673.5024,2.428651e-15
1341.6157,-680.8189,2.3277346e-15
1343.292,-688.1917,2.045604e-15
1344.9683,-695.6206,1.886381e-15
1346.6445,-703.1049,1.779247e-15
1348.3207,-710.6441,1.8651435e-15
1349.9971,-718.2405,1.9490425e-15
1351.6732,-725.8947,1.9473855e-15
1353.3495,-733.605,1.8534155e-15
1355.0259,-741.37177,2.2178302e-15
1356.702,-749.1947,2.297695e-15
1358.3782,-757.0756,2.405327e-15
1360.0544,-765.0131,2.2105008e-15
1361.7308,-773.0095,2.4486247e-15
1363.407,-781.06274,2.0474627e-15
1365.0833,-789.17444,1.935897e-15
1366.7596,-797.34375,1.9362735e-15
1368.4358,-805.5711,1.7983327e-15
1370.1119,-813.8561,1.7196597e-15
1371.7883,-822.20123,1.730828e-15
1373.4646,-830.6043,1.7597886e-15
1375.1407,-839.0654,1.6812207e-15
1376.8171,-847.58716,1.7381616e-15
1378.4933,-856.1662,1.7174135e-15
1380.1696,-864.806,1.7249696e-15
1381.8458,-873.50525,1.6261692e-15
1383.5221,-882.2635,1.6840632e-15
1385.1984,-891.08246,1.7170028e-15
1386.8746,-899.9603,1.9308527e-15
1388.5509,-908.8989,1.9059567e-15
1390.227,-917.89526,2.0056326e-15
1391.9033,-926.95435,2.4059746e-15
1393.5796,-936.07385,3.1084517e-15
1395.2559,-945.2535,3.752585e-15
1396.9321,-954.4959,3.576653e-15
1398.6084,-963.79694,3.081356e-15
1400.2845,-973.16003,2.950005e-15
1401.9608,-982.58246,3.0349104e-15
1403.6372,-992.0703,3.4344365e-15
1405.3134,-1001.6158,3.1608925e-15
1406.9896,-1011.2226,2.5481786e-15
1408.6659,-1020.8942,2.1680215e-15
1410.3422,-1030.6256,1.7962744e-15
1412.0183,-1040.4207,1.7759311e-15
1413.6947,-1050.2758,1.6770251e-15
1415.371,-1060.1951,1.802376e-15
1417.0471,-1070.1754,1.6615536e-15
1418.7234,-1080.217,1.7481846e-15
1420.3997,-1090.3245,1.7921426e-15
1422.0759,-1100.4913,1.7997193e-15
1423.7521,-1110.7241,1.7512479e-15
1425.4285,-1121.0187,1.7921845e-15
1427.1047,-1131.3767,1.9243892e-15
1428.7809,-1141.7961,1.9878495e-15
1430.4572,-1152.2777,2.0792395e-15
1432.1334,-1162.8275,2.0265094e-15
1433.8097,-1173.4373,2.2306263e-15
1435.486,-1184.1133,2.2195217e-15
1437.1622,-1194.851,1.964673e-15
1438.8384,-1205.6527,2.183816e-15
1440.5148,-1216.5197,2.0204571e-15
1442.1909,-1227.4487,2.0256276e-15
1443.8672,-1238.4425,2.1320639e-15
1445.5436,-1249.5006,2.1201794e-15
1447.2197,-1260.6239,2.1264152e-15
1448.896,-1271.8108,2.2116757e-15
1450.5721,-1283.0618,1.9864132e-15
1452.2485,-1294.3787,2.185778e-15
1453.9247,-1305.7583,2.1444992e-15
1455.601,-1317.2039,2.1590802e-15
1457.2773,-1328.7168,2.3836174e-15
1458.9535,-1340.2906,2.2151464e-15
1460.6296,-1351.9285,2.0613356e-15
1462.306,-1363.6351,2.1360852e-15
1463.9823,-1375.4075,2.3634767e-15
1465.6584,-1387.2421,2.2560284e-15
1467.3348,-1399.1439,2.30836e-15
1469.0111,-1411.1129,2.1610294e-15
1470.6873,-1423.1412,2.3531918e-15
1472.3635,-1435.239,2.2245374e-15
1474.0398,-1447.403,2.2251062e-15
1475.7161,-1459.6321,2.0597641e-15
1477.3922,-1471.9269,2.2249612e-15
1479.0686,-1484.2859,2.0858188e-15
1480.7448,-1496.7133,2.095525e-15
1482.421,-1509.205,2.1684854e-15
1484.0973,-1521.7632,2.2886915e-15
1485.7736,-1534.3868,2.246753e-15
1487.4498,-1547.0764,2.4010633e-15
1489.1261,-1559.834,2.4792597e-15
1490.8024,-1572.6566,2.6891862e-15
1492.4785,-1585.5452,2.4134887e-15
1494.1549,-1598.5007,2.1601534e-15
1495.831,-1611.5225,2.0757608e-15
1497.5073,-1624.6108,2.1688008e-15
1499.1837,-1637.7667,2.212461e-15
1500.8599,-1650.9857,2.2257548e-15
1502.536,-1664.269,2.2846677e-15
1504.2124,-1677.6266,2.3724861e-15
1505.8887,-1691.045,2.6330453e-15
1507.5648,-1704.5326,2.5548043e-15
1509.2411,-1718.0858,2.2893412e-15
1510.9174,-1731.7064,2.1680962e-15
1512.5936,-1745.394,2.096696e-15
1514.2698,-1759.1437,2.0796308e-15
1515.9462,-1772.9677,2.0616051e-15
1517.6224,-1786.854,2.2475757e-15
1519.2986,-1800.8088,2.291635e-15
1520.975,-1814.8304,2.3695988e-15
1522.6511,-1828.917,2.358605e-15
1524.3274,-1843.0718,2.3653797e-15
1526.0037,-1857.2921,2.3724935e-15
1527.6799,-1871.5822,2.4889741e-15
1529.3562,-1885.9379,2.5949672e-15
1531.0325,-1900.3578,2.4495094e-15
1532.7086,-1914.8468,2.4000164e-15
1534.3849,-1929.4034,2.4197737e-15
1536.0612,-1944.0269,2.390824e-15
1537.7374,-1958.7156,2.4218152e-15
1539.4137,-1973.4717,2.5353191e-15
1541.09,-1988.2954,2.550747e-15
1542.7662,-2003.1863,2.4452225e-15
1544.4424,-2018.1428,2.6024842e-15
1546.1187,-2033.1676,2.722331e-15
1547.795,-2048.2598,3.0633804e-15
1549.4712,-2063.4202,3.0678733e-15
1551.1475,-2078.6423,3.088375e-15
1552.8237,-2093.937,2.750026e-15
1554.5,-2109.293,2.4100772e-15
1556.1761,-2124.7197,2.210882e-15
1557.8525,-2140.212,2.122488e-15
1559.5288,-2155.7737,1.9835227e-15
1561.205,-2171.4006,1.9430633e-15
1562.8812,-2187.091,2.04619e-15
1564.5575,-2202.8528,2.0338114e-15
1566.2338,-2218.6765,1.855949e-15
1567.9099,-2234.5688,1.8913903e-15
1569.5863,-2250.532,1.7025082e-15
1571.2626,-2266.5588,1.8869594e-15
1572.9387,-2282.6516,1.8063935e-15
1574.615,-2298.81,1.849093e-15
1576.2913,-2315.0393,1.9372258e-15
1577.9675,-2331.33,2.0623158e-15
1579.6438,-2347.692,2.0201717e-15
1581.3201,-2364.1184,1.9567948e-15
1582.9963,-2380.6082,2.0150526e-15
1584.6726,-2397.1697,2.0941295e-15
1586.3488,-2413.791,2.1090962e-15
1588.025,-2430.4868,2.0524271e-15
1589.7014,-2447.2415,2.088589e-15
1591.3776,-2464.0684,2.1658446e-15
1593.0537,-2480.9553,2.2788951e-15
1594.73,-2497.9092,2.3804688e-15
1596.4064,-2514.9353,2.3038443e-15
1598.0825,-2532.0195,2.192685e-15
1599.7588,-2549.1775,2.1713294e-15
1601.4352,-2566.397,2.189752e-15
1603.1113,-2583.6814,2.0348546e-15
1604.7875,-2601.0322,1.9719804e-15
1606.4639,-2618.4517,1.8930858e-15
1608.1401,-2635.9333,1.9210855e-15
1609.8163,-2653.4788,1.7277538e-15
1611.4927,-2671.0967,1.79669e-15
1613.169,-2688.7744,1.839423e-15
1614.8451,-2706.5188,1.9290104e-15
1616.5214,-2724.329,2.0073806e-15
1618.1976,-2742.206,1.9401472e-15
1619.8739,-2760.145,1.8443708e-15
1621.55,-2778.15,1.8128991e-15
1623.2263,-2796.2192,1.6986166e-15
1624.9027,-2814.3545,1.6323891e-15
1626.5789,-2832.5554,1.6098044e-15
1628.2551,-2850.8206,1.6750116e-15
1629.9314,-2869.15,1.6577012e-15
1631.6077,-2887.5422,1.6620935e-15
1633.2839,-2906.006,1.6810051e-15
1634.9601,-2924.5234,1.6351032e-15
1636.6364,-2943.1108,1.6024196e-15
1638.3127,-2961.7642,1.6660895e-15
1639.9889,-2980.4792,1.7455079e-15
1641.6652,-2999.258,1.7557819e-15
1643.3416,-3018.1016,1.7436416e-15
1645.0177,-3037.0115,1.7398213e-15
1646.6938,-3055.9792,1.6674532e-15
1648.3702,-3075.018,1.6135803e-15
1650.0465,-3094.1138,1.5716574e-15
1651.7227,-3113.2734,1.6142917e-15
1653.3988,-3132.502,1.6236709e-15
1655.0753,-3151.7878,1.5932754e-15
1656.7515,-3171.1414,1.5719909e-15
1658.4276,-3190.5513,1.5931788e-15
1660.104,-3210.0354,1.6021031e-15
1661.7803,-3229.5713,1.5589857e-15
1663.4564,-3249.1748,1.6624202e-15
1665.1327,-3268.8438,1.9327947e-15
1666.809,-3288.5654,2.0400496e-15
1668.4852,-3308.3608,2.0247908e-15
1670.1615,-3328.2104,1.6939368e-15
1671.8378,-3348.1287,1.6103831e-15
1673.514,-3368.104,1.4811972e-15
1675.1903,-3388.143,1.4119696e-15
1676.8665,-3408.242,1.4464435e-15
1678.5427,-3428.4038,1.4976025e-15
1680.219,-3448.6277,1.4657145e-15
1681.8953,-3468.9111,1.4482234e-15
1683.5715,-3489.2607,1.515459e-15
1685.2478,-3509.6685,1.4617149e-15
1686.9241,-3530.1377,1.4239953e-15
1688.6002,-3550.6633,1.3540453e-15
1690.2765,-3571.254,1.3469616e-15
1691.9529,-3591.9058,1.3397718e-15
1693.629,-3612.6135,1.3176078e-15
1695.3052,-3633.3855,1.3384595e-15
1696.9816,-3654.2173,1.3610922e-15
1698.6578,-3675.1084,1.5127917e-15
1700.334,-3696.0618,1.6625096e-15
1702.0104,-3717.0728,1.3854966e-15
1703.6866,-3738.143,1.3024794e-15
1705.3628,-3759.2737,1.2509502e-15
1707.0391,-3780.4644,1.2453673e-15
1708.7153,-3801.7112,1.2817559e-15
1710.3916,-3823.0217,1.2738937e-15
1712.0677,-3844.3872,1.2832331e-15
1713.7441,-3865.8113,1.3083593e-15
1715.4204,-3887.2993,1.3021055e-15
1717.0966,-3908.8418,1.2883656e-15
1718.7728,-3930.4414,1.2751284e-15
1720.4491,-3952.0986,1.2823995e-15
1722.1254,-3973.8162,1.2728231e-15
1723.8016,-3995.5962,1.2393779e-15
1725.4778,-4017.4277,1.2741711e-15
1727.1542,-4039.3188,1.2542898e-15
1728.8304,-4061.271,1.3293908e-15
1730.5066,-4083.27,1.3600471e-15
1732.1829,-4105.3296,1.3551256e-15
1733.8593,-4127.452,1.3137272e-15
1735.5354,-4149.627,1.2877945e-15
1737.2115,-4171.8604,1.2937457e-15
1738.8878,-4194.1436,1.2464657e-15
1740.5642,-4216.495,1.1884708e-15
1742.2404,-4238.895,1.2297844e-15
1743.9166,-4261.3525,1.2035752e-15
1745.593,-4283.864,1.2616046e-15
1747.2692,-4306.4307,1.2103468e-15
1748.9453,-4329.058,1.2056901e-15
1750.6217,-4351.732,1.1440805e-15
1752.298,-4374.4727,1.1374978e-15
1753.9741,-4397.255,1.1763473e-15
1755.6505,-4420.1055,1.4621177e-15
1757.3268,-4443.002,1.9951874e-15
1759.0029,-4465.954,1.3729624e-15
1760.6792,-4488.9624,1.2409257e-15
1762.3555,-4512.016,1.1703224e-15
1764.0317,-4535.135,1.1033993e-15
1765.708,-4558.3003,1.1193944e-15
1767.3842,-4581.524,1.1154805e-15
1769.0604,-4604.798,1.1133225e-15
1770.7367,-4628.1265,1.1026825e-15
1772.413,-4651.509,1.1131517e-15
1774.0892,-4674.9385,1.1523343e-15
1775.7655,-4698.43,1.2188969e-15
1777.4418,-4721.9697,1.4018959e-15
1779.1179,-4745.5557,1.5466038e-15
1780.7942,-4769.198,1.7859169e-15
1782.4706,-4792.894,1.7590162e-15
1784.1467,-4816.641,1.7462867e-15
1785.823,-4840.435,1.5518226e-15
1787.4994,-4864.289,1.3225338e-15
1789.1755,-4888.189,1.2359889e-15
1790.8517,-4912.1343,1.3006536e-15
1792.5281,-4936.1353,1.648477e-15
1794.2043,-4960.1914,2.1470271e-15
1795.8805,-4984.2925,2.163337e-15
1797.5566,-5008.4473,1.9956397e-15
1799.2332,-5032.6455,1.9181402e-15
1800.9093,-5056.9,4.1629285e-15
1802.5854,-5081.197,2.8494214e-15
1804.2618,-5105.547,3.5916564e-15
1805.9381,-5129.9478,4.4012353e-15
1807.6143,-5154.392,2.4906337e-15
1809.2905,-5178.8955,2.8775996e-15
1810.9668,-5203.4355,2.6922466e-15
1812.6431,-5228.0317,2.4270622e-15
1814.3193,-5252.6724,2.871653e-15
1815.9956,-5277.3584,3.2966787e-15
1817.6719,-5302.0977,3.1803895e-15
1819.3481,-5326.884,2.5837986e-15
1821.0243,-5351.7163,2.19266e-15
1822.7006,-5376.592,1.5211273e-15
1824.377,-5401.5244,1.2324595e-15
1826.0531,-5426.491,1.1316922e-15
1827.7292,-5451.5063,1.0245825e-15
1829.4056,-5476.574,1.0184601e-15
1831.0819,-5501.683,9.61882e-16
1832.758,-5526.8394,9.333401e-16
1834.4343,-5552.04,9.290133e-16
1836.1107,-5577.2915,9.283702e-16
1837.7869,-5602.5786,8.983715e-16
1839.463,-5627.9204,9.054066e-16
1841.1394,-5653.3022,9.11126e-16
1842.8157,-5678.7266,9.76377e-16
1844.4918,-5704.2007,1.0137033e-15
1846.1682,-5729.7124,9.937589e-16
1847.8445,-5755.2783,9.968147e-16
1849.5206,-5780.878,1.0589489e-15
1851.1969,-5806.5215,1.0904825e-15
1852.8732,-5832.212,1.1040092e-15
1854.5494,-5857.9443,1.1617704e-15
1856.2256,-5883.7163,1.2217611e-15
1857.902,-5909.5327,1.2144091e-15
1859.5782,-5935.3965,1.1294946e-15
1861.2544,-5961.2974,1.0658053e-15
1862.9307,-5987.2383,1.0227797e-15
1864.6069,-6013.2295,1.1119463e-15
1866.2832,-6039.253,1.3390345e-15
1867.9595,-6065.318,1.9397194e-15
1869.6356,-6091.427,1.9074917e-15
1871.3119,-6117.577,1.9191657e-15
1872.9883,-6143.77,1.9281945e-15
1874.6644,-6169.9976,2.0777007e-15
1876.3407,-6196.269,1.2296027e-15
1878.0171,-6222.582,1.1044362e-15
1879.6932,-6248.9307,1.1732955e-15
1881.3694,-6275.323,1.2322217e-15
1883.0457,-6301.7476,1.7359005e-15
1884.722,-6328.2227,1.9671705e-15
1886.3982,-6354.7256,4.7430876e-15
1888.0745,-6381.2676,1.0897533e-14
1889.7509,-6407.852,1.7086376e-14
1891.427,-6434.47,2.7404953e-14
1893.1031,-6461.1357,2.7310953e-14
1894.7795,-6487.832,3.2132107e-14
1896.4558,-6514.5684,4.4524325e-15
1898.132,-6541.333,3.0286427e-15
1899.8082,-6568.14,1.9613234e-15
1901.4846,-6594.992,1.5764743e-15
1903.1608,-6621.8687,1.5166125e-15
1904.837,-6648.7915,1.5954004e-15
1906.5133,-6675.7417,1.5054617e-15
1908.1896,-6702.738,1.544063e-15
1909.8658,-6729.7563,1.6698328e-15
1911.542,-6756.813,1.981169e-15
1913.2183,-6783.9175,1.5638445e-15
1914.8945,-6811.041,1.3481769e-15
1916.5708,-6838.209,1.3475725e-15
1918.2471,-6865.405,1.2871291e-15
1919.9233,-6892.643,1.2119067e-15
1921.5996,-6919.907,1.2109358e-15
1923.2758,-6947.205,1.2389365e-15
1924.952,-6974.549,1.3908259e-15
1926.6284,-7001.9126,1.2209346e-15
1928.3046,-7029.3135,1.1919982e-15
1929.9807,-7056.7397,1.2799553e-15
1931.6572,-7084.218,1.2995422e-15
1933.3334,-7111.71,1.2597552e-15
1935.0095,-7139.24,1.3164131e-15
1936.6859,-7166.8086,1.3789179e-15
1938.3622,-7194.3916,1.5230472e-15
1940.0383,-7222.0264,1.877896e-15
1941.7145,-7249.677,2.0823996e-15
1943.3909,-7277.371,2.0118187e-15
1945.0671,-7305.0845,2.826276e-15
1946.7433,-7332.834,2.3649418e-15
1948.4197,-7360.6123,2.4194173e-15
1950.096,-7388.4224,3.8874158e-15
1951.7721,-7416.2593,2.3046532e-15
1953.4484,-7444.1265,2.4210745e-15
1955.1246,-7472.0195,2.718591e-15
1956.8009,-7499.9463,3.5502198e-15
1958.4772,-7527.9023,4.450226e-15
1960.1534,-7555.8823,4.893173e-15
1961.8297,-7583.8945,3.7133653e-15
1963.506,-7611.935,3.3686418e-15
1965.1821,-7640.0005,2.72684e-15
1966.8584,-7668.092,3.5358503e-15
1968.5348,-7696.219,4.0351083e-15
1970.2109,-7724.364,2.8700051e-15
1971.8871,-7752.5425,2.296012e-15
1973.5634,-7780.7446,2.6154806e-15
1975.2397,-7808.974,3.4113363e-15
1976.9159,-7837.231,2.2779177e-15
1978.5922,-7865.5063,3.1818579e-15
