Wavelengths,Flux,Fluxerr
1150.614,-0.12512283,1.5769699e-13
1152.2904,-0.12999491,1.4787677e-13
1153.9668,-0.13504063,1.3873746e-13
1155.6432,-0.14026494,1.3170663e-13
1157.3196,-0.14567369,1.2345348e-13
1158.9961,-0.15127349,1.125675e-13
1160.6725,-0.15706931,1.0412656e-13
1162.3489,-0.16306773,9.625211e-14
1164.0254,-0.16927557,9.023601e-14
1165.7018,-0.17569925,7.873368e-14
1167.3782,-0.18234454,7.242663e-14
1169.0547,-0.18921992,6.73366e-14
1170.7311,-0.19633083,6.243566e-14
1172.4075,-0.20368622,5.8155276e-14
1174.084,-0.21129216,5.4271105e-14
1175.7604,-0.21915735,5.0737365e-14
1177.4369,-0.22728932,4.8163042e-14
1179.1133,-0.2356963,4.427713e-14
1180.7897,-0.24438632,4.074975e-14
1182.4662,-0.2533684,3.8028063e-14
1184.1426,-0.26265123,3.5651793e-14
1185.819,-0.2722436,3.4067875e-14
1187.4955,-0.28215468,3.3296957e-14
1189.1719,-0.2923943,3.111046e-14
1190.8483,-0.30297226,2.8641006e-14
1192.5248,-0.31389764,2.7489673e-14
1194.201,-0.32518184,2.912026e-14
1195.8777,-0.33683679,2.7799438e-14
1197.554,-0.34886867,2.6758843e-14
1199.2303,-0.36129183,2.4607068e-14
1200.9069,-0.37412,2.1404318e-14
1202.5833,-0.38735905,2.077898e-14
1204.2596,-0.4010251,2.0973944e-14
1205.9362,-0.41512984,2.1076143e-14
1207.6125,-0.42968565,2.0499143e-14
1209.2891,-0.44470266,2.1955011e-14
1210.9655,-0.46019977,5.0050337e-14
1212.6418,-0.47618276,4.8325435e-14
1214.3184,-0.49267513,5.673598e-14
1215.9948,-0.50968003,6.7268416e-14
1217.6711,-0.52722317,3.938824e-14
1219.3477,-0.5453119,3.44266e-14
1221.024,-0.5639631,2.5241362e-14
1222.7004,-0.5831933,2.2055505e-14
1224.377,-0.60301816,1.6821315e-14
1226.0533,-0.623455,1.3319781e-14
1227.7299,-0.64451903,1.28413625e-14
1229.4062,-0.66622865,1.23699396e-14
1231.0826,-0.6886001,1.2026895e-14
1232.7592,-0.7116502,1.1826685e-14
1234.4355,-0.7354044,1.1895008e-14
1236.1118,-0.75987047,1.1815893e-14
1237.7885,-0.78508186,1.12312715e-14
1239.4647,-0.81104076,1.1169778e-14
1241.1411,-0.837781,1.0867341e-14
1242.8176,-0.86532545,1.10582235e-14
1244.494,-0.89367914,1.0542448e-14
1246.1705,-0.9228846,1.0268202e-14
1247.8469,-0.9529415,1.0109906e-14
1249.5233,-0.98389363,9.975923e-15
1251.1998,-1.0157499,9.762007e-15
1252.8762,-1.0485431,9.64356e-15
1254.5526,-1.0822875,9.5297e-15
1256.2291,-1.11702,9.32021e-15
1257.9055,-1.1527536,9.432505e-15
1259.582,-1.1895258,9.527663e-15
1261.2584,-1.2273523,8.879918e-15
1262.9348,-1.266269,8.85633e-15
1264.6113,-1.3062991,8.688415e-15
1266.2877,-1.3474753,8.553425e-15
1267.9641,-1.3898114,8.3779055e-15
1269.6406,-1.433363,8.2957645e-15
1271.317,-1.478133,9.031917e-15
1272.9934,-1.5241741,8.223726e-15
1274.6699,-1.571501,8.150888e-15
1276.3463,-1.6201632,8.659237e-15
1278.0227,-1.6701756,8.218371e-15
1279.6992,-1.7215873,8.079173e-15
1281.3755,-1.7744191,7.957025e-15
1283.052,-1.8287159,7.843753e-15
1284.7284,-1.8845006,8.0593e-15
1286.4048,-1.9418288,7.977172e-15
1288.0813,-2.0007274,7.689635e-15
1289.7577,-2.0612366,7.699276e-15
1291.4342,-2.1233835,7.652768e-15
1293.1106,-2.187235,7.877671e-15
1294.787,-2.2527928,7.910898e-15
1296.4635,-2.3201408,7.844178e-15
1298.1399,-2.3892806,7.624385e-15
1299.8163,-2.4602866,7.91618e-15
1301.4928,-2.5331764,8.3767425e-15
1303.1692,-2.6080277,8.432844e-15
1304.8456,-2.6848576,1.0424227e-14
1306.5221,-2.7637255,1.3095175e-14
1308.1985,-2.8446736,1.4459655e-14
1309.875,-2.927754,8.109942e-15
1311.5514,-3.013009,7.33576e-15
1313.2278,-3.1004903,8.033888e-15
1314.9043,-3.1902661,7.0843184e-15
1316.5807,-3.282378,6.9292466e-15
1318.2571,-3.3768585,6.907862e-15
1319.9335,-3.4737911,6.887713e-15
1321.61,-3.5732172,7.0881665e-15
1323.2863,-3.6751952,7.0858783e-15
1324.9629,-3.7797956,7.453673e-15
1326.6392,-3.8870568,7.227893e-15
1328.3157,-3.997059,7.676135e-15
1329.9921,-4.1098356,7.269537e-15
1331.6685,-4.2254786,7.8091745e-15
1333.345,-4.34403,8.539814e-15
1335.0214,-4.4655666,1.2405459e-14
1336.6978,-4.59014,9.6515965e-15
1338.3743,-4.7178426,1.0027451e-14
1340.0507,-4.848716,7.353198e-15
1341.7272,-4.982844,7.2065775e-15
1343.4036,-5.120299,7.255998e-15
1345.08,-5.2611217,7.007224e-15
1346.7565,-5.4054475,6.7668255e-15
1348.4329,-5.553288,6.960259e-15
1350.1093,-5.7047625,7.236619e-15
1351.7858,-5.8599377,1.09516185e-14
1353.4622,-6.0188584,7.4213766e-15
1355.1385,-6.1816487,7.232533e-15
1356.8151,-6.3483834,7.239231e-15
1358.4915,-6.5191298,6.911863e-15
1360.168,-6.6939716,7.58695e-15
1361.8442,-6.872994,7.987264e-15
1363.5208,-7.056316,7.810164e-15
1365.1971,-7.244001,7.396826e-15
1366.8737,-7.436139,7.797623e-15
1368.5499,-7.6328087,8.118428e-15
1370.2264,-7.8341637,8.016645e-15
1371.9028,-8.040222,8.878522e-15
1373.5792,-8.25113,1.09464e-14
1375.2557,-8.466986,8.338717e-15
1376.9321,-8.687841,7.943863e-15
1378.6086,-8.913895,8.203542e-15
1380.285,-9.14513,7.4952895e-15
1381.9614,-9.38174,8.470555e-15
1383.638,-9.623781,8.815977e-15
1385.3143,-9.871413,7.852697e-15
1386.9907,-10.124713,8.495384e-15
1388.6672,-10.383797,8.21296e-15
1390.3436,-10.648797,8.5548684e-15
1392.0201,-10.919806,8.682227e-15
1393.6965,-11.19696,9.542819e-15
1395.3729,-11.480363,1.0026221e-14
1397.0494,-11.770179,8.658001e-15
1398.7258,-12.066491,8.263413e-15
1400.4022,-12.369377,7.89409e-15
1402.0787,-12.679111,8.696463e-15
1403.755,-12.99566,8.7279215e-15
1405.4315,-13.319309,8.49079e-15
1407.1079,-13.650049,8.2275105e-15
1408.7844,-13.988167,7.96624e-15
1410.4608,-14.333696,7.1381576e-15
1412.1372,-14.68675,7.132227e-15
1413.8136,-15.047566,7.453891e-15
1415.4901,-15.416266,7.021155e-15
1417.1665,-15.792968,7.542101e-15
1418.8429,-16.17782,7.4254135e-15
1420.5194,-16.571045,7.32551e-15
1422.1958,-16.972736,8.445252e-15
1423.8722,-17.383013,8.964483e-15
1425.5487,-17.802176,1.1376296e-14
1427.2251,-18.230183,7.264702e-15
1428.9016,-18.667433,7.276057e-15
1430.578,-19.11388,7.845107e-15
1432.2544,-19.569843,8.029193e-15
1433.9309,-20.035461,7.306144e-15
1435.6073,-20.510794,8.143638e-15
1437.2837,-20.996176,7.745529e-15
1438.9602,-21.491713,8.860373e-15
1440.6366,-21.997625,7.406806e-15
1442.3131,-22.514055,7.634697e-15
1443.9895,-23.041225,7.859297e-15
1445.6658,-23.579334,7.3545135e-15
1447.3424,-24.12854,7.467154e-15
1449.0187,-24.689034,7.2905405e-15
1450.6952,-25.261013,7.769349e-15
1452.3716,-25.844793,7.272535e-15
1454.048,-26.440338,7.206625e-15
1455.7244,-27.048168,7.210247e-15
1457.4009,-27.668316,7.4230994e-15
1459.0773,-28.30103,7.539596e-15
1460.7538,-28.94647,7.356029e-15
1462.4302,-29.604904,7.810326e-15
1464.1066,-30.276508,8.162724e-15
1465.7831,-30.961693,7.8510535e-15
1467.4595,-31.660444,7.39043e-15
1469.1359,-32.373188,7.312486e-15
1470.8124,-33.099987,7.123905e-15
1472.4888,-33.841316,7.504394e-15
1474.1652,-34.597042,7.532354e-15
1475.8417,-35.367958,7.76354e-15
1477.5181,-36.1537,7.7567466e-15
1479.1946,-36.955124,7.6931115e-15
1480.871,-37.771927,7.373026e-15
1482.5474,-38.60481,7.092164e-15
1484.2239,-39.453743,7.0609e-15
1485.9003,-40.319138,7.398783e-15
1487.5765,-41.20115,7.349984e-15
1489.2532,-42.100395,7.825424e-15
1490.9294,-43.016582,7.304133e-15
1492.6061,-43.950645,7.397041e-15
1494.2823,-44.90227,6.960298e-15
1495.9587,-45.872128,7.180737e-15
1497.6353,-46.860355,7.492232e-15
1499.3116,-47.86735,7.552291e-15
1500.988,-48.893234,7.468158e-15
1502.6646,-49.938606,6.8906295e-15
1504.341,-51.003582,7.0937197e-15
1506.0173,-52.088295,7.8822e-15
1507.6938,-53.19355,7.322006e-15
1509.3702,-54.31909,7.0513426e-15
1511.0468,-55.465805,7.234125e-15
1512.7231,-56.633526,7.412809e-15
1514.3995,-57.822906,7.779506e-15
1516.076,-59.034187,6.7628017e-15
1517.7524,-60.267822,8.219904e-15
1519.4288,-61.523937,7.406698e-15
1521.1053,-62.803024,7.8535624e-15
1522.7817,-64.10542,7.20785e-15
1524.4581,-65.431496,7.2609e-15
1526.1346,-66.78145,6.834267e-15
1527.811,-68.15601,7.425628e-15
1529.4874,-69.555084,7.123103e-15
1531.164,-70.97971,7.350377e-15
1532.8402,-72.42922,7.819871e-15
1534.5168,-73.9053,6.746548e-15
1536.1931,-75.407074,6.749934e-15
1537.8695,-76.93597,7.2943005e-15
1539.546,-78.49169,7.250286e-15
1541.2224,-80.075226,7.0911934e-15
1542.8989,-81.686516,7.813828e-15
1544.5753,-83.32612,7.745386e-15
1546.2517,-84.99447,1.1008446e-14
1547.9282,-86.692184,1.660173e-14
1549.6046,-88.41917,1.6807461e-14
1551.281,-90.17624,1.5993363e-14
1552.9575,-91.96402,8.067579e-15
1554.6339,-93.78281,6.6247696e-15
1556.3103,-95.63229,7.4615505e-15
1557.9868,-97.514465,8.021842e-15
1559.6632,-99.42828,7.2461636e-15
1561.3397,-101.37532,6.8662464e-15
1563.0161,-103.35507,6.9600515e-15
1564.6924,-105.36884,7.5417925e-15
1566.369,-107.41706,5.9965706e-15
1568.0453,-109.49934,6.4525644e-15
1569.7218,-111.61725,6.631574e-15
1571.3982,-113.7707,6.306472e-15
1573.0747,-115.96014,7.0401533e-15
1574.751,-118.18638,7.0481006e-15
1576.4276,-120.44994,7.778399e-15
1578.1039,-122.7511,1.0472313e-14
1579.7805,-125.09041,7.2919804e-15
1581.4568,-127.46881,6.406712e-15
1583.1333,-129.88586,7.0483483e-15
1584.8097,-132.34348,9.407157e-15
1586.4861,-134.84068,6.169895e-15
1588.1625,-137.37967,6.6280743e-15
1589.839,-139.9598,6.3162866e-15
1591.5154,-142.58209,6.9499553e-15
1593.1919,-145.24684,6.941085e-15
1594.8683,-147.95488,6.887217e-15
1596.5447,-150.70676,5.958924e-15
1598.2212,-153.50336,6.129482e-15
1599.8976,-156.34464,6.0203845e-15
1601.574,-159.2313,8.473898e-15
1603.2505,-162.16429,6.353336e-15
1604.9269,-165.14436,6.0303198e-15
1606.6031,-168.17152,6.27415e-15
1608.2798,-171.24744,6.581251e-15
1609.956,-174.37141,5.7538334e-15
1611.6327,-177.54506,6.556729e-15
1613.309,-180.76895,5.70002e-15
1614.9855,-184.04286,5.7632948e-15
1616.6619,-187.36882,5.7947307e-15
1618.3384,-190.74574,6.0174123e-15
1620.0146,-194.17615,5.44088e-15
1621.6913,-197.65967,4.913485e-15
1623.3676,-201.19736,6.8510837e-15
1625.0441,-204.78963,5.8173084e-15
1626.7205,-208.43756,5.6680688e-15
1628.3969,-212.14119,5.60184e-15
1630.0734,-215.90208,6.4989734e-15
1631.7498,-219.72018,6.201534e-15
1633.4261,-223.59702,7.589841e-15
1635.1027,-227.53262,5.5421446e-15
1636.779,-231.52855,5.9845016e-15
1638.4554,-235.58386,6.822546e-15
1640.132,-239.70164,6.106715e-15
1641.8083,-243.88036,7.710743e-15
1643.4849,-248.12305,6.900986e-15
1645.1613,-252.42805,5.8485706e-15
1646.8376,-256.79868,5.3261643e-15
1648.514,-261.23404,6.1166964e-15
1650.1906,-265.73544,5.6103655e-15
1651.8668,-270.3032,5.3731696e-15
1653.5435,-274.93958,5.427478e-15
1655.2197,-279.64334,5.5373928e-15
1656.8962,-284.4164,5.6156552e-15
1658.5726,-289.2599,6.599855e-15
1660.2491,-294.1753,5.846632e-15
1661.9255,-299.1606,5.8222538e-15
1663.602,-304.22067,5.5813563e-15
1665.2783,-309.35223,5.787468e-15
1666.955,-314.56027,5.6812935e-15
1668.6312,-319.84137,5.144705e-15
1670.3076,-325.19983,5.283888e-15
1671.9841,-330.63553,5.8822347e-15
1673.6605,-336.14862,5.354072e-15
1675.3369,-341.74094,6.5905313e-15
1677.0134,-347.41348,4.7035257e-15
1678.6898,-353.16638,5.3503984e-15
1680.3663,-359.0013,5.432674e-15
1682.0427,-364.9184,5.4782927e-15
1683.7191,-370.9195,4.4817902e-15
1685.3956,-377.00497,4.8754132e-15
1687.072,-383.17648,4.7071387e-15
1688.7484,-389.43365,5.043596e-15
1690.4248,-395.7793,5.26283e-15
1692.1013,-402.21228,4.6341507e-15
1693.7777,-408.7359,5.232914e-15
1695.4542,-415.35028,6.0492772e-15
1697.1305,-422.05496,5.3245186e-15
1698.8071,-428.85382,5.0809708e-15
1700.4834,-435.7442,5.422613e-15
1702.1599,-442.7317,7.0154174e-15
1703.8363,-449.81317,5.2220166e-15
1705.5128,-456.99237,4.9773295e-15
1707.1891,-464.2677,5.1713246e-15
1708.8657,-471.645,5.5138033e-15
1710.542,-479.11984,5.026859e-15
1712.2185,-486.6972,5.4611437e-15
1713.8949,-494.3765,5.0117055e-15
1715.5713,-502.15887,4.8007536e-15
1717.2478,-510.04602,4.8977978e-15
1718.9242,-518.0396,4.842846e-15
1720.6006,-526.13806,4.4994784e-15
1722.2771,-534.348,4.4039077e-15
1723.9535,-542.6631,4.065384e-15
1725.6299,-551.0911,4.245245e-15
1727.3064,-559.6281,4.341148e-15
1728.9828,-568.2805,5.0499037e-15
1730.6593,-577.04626,5.086439e-15
1732.3356,-585.92566,4.9914872e-15
1734.0121,-594.92255,4.694157e-15
1735.6885,-604.0364,5.163062e-15
1737.365,-613.2692,5.138586e-15
1739.0413,-622.6214,5.2035737e-15
1740.7179,-632.09686,5.739558e-15
1742.3942,-641.6932,5.078751e-15
1744.0708,-651.4141,4.632332e-15
1745.7471,-661.2594,4.968823e-15
1747.4236,-671.2306,5.043129e-15
1749.1,-681.33185,5.5708946e-15
1750.7765,-691.55945,5.230342e-15
1752.4528,-701.9185,5.036131e-15
1754.1293,-712.4097,4.959544e-15
1755.8057,-723.03394,4.890911e-15
1757.482,-733.7916,5.1621186e-15
1759.1586,-744.68604,4.8553944e-15
1760.835,-755.7165,4.9063083e-15
1762.5115,-766.8861,4.8494313e-15
1764.1879,-778.19617,4.7387406e-15
1765.8643,-789.6453,5.152212e-15
1767.5408,-801.2398,4.9516767e-15
1769.2172,-812.9779,4.957139e-15
1770.8936,-824.8583,4.95941e-15
1772.5701,-836.89044,4.8912866e-15
1774.2463,-849.0666,5.4817347e-15
1775.9229,-861.39557,5.0914176e-15
1777.5992,-873.87396,5.0831243e-15
1779.2758,-886.50684,5.1258936e-15
1780.9521,-899.29376,5.10652e-15
1782.6287,-912.2376,4.9723976e-15
1784.3049,-925.3353,5.058049e-15
1785.9816,-938.5958,4.9860984e-15
1787.6578,-952.01306,5.23667e-15
1789.3344,-965.5948,5.561074e-15
1791.0107,-979.339,5.6361704e-15
1792.6873,-993.24915,6.0162624e-15
1794.3636,-1007.3247,5.5185014e-15
1796.04,-1021.5696,5.5505667e-15
1797.7164,-1035.9824,5.6155417e-15
1799.393,-1050.5691,5.5538426e-15
1801.0693,-1065.3253,5.2901015e-15
1802.7457,-1080.2587,5.439303e-15
1804.4222,-1095.3698,5.192946e-15
1806.0986,-1110.6554,5.4799356e-15
1807.775,-1126.1224,5.675977e-15
1809.4515,-1141.7706,5.6306206e-15
1811.1279,-1157.6013,5.521716e-15
1812.8044,-1173.6162,5.609319e-15
1814.4808,-1189.8193,7.438368e-15
1816.1571,-1206.2102,6.1380666e-15
1817.8337,-1222.7893,6.158188e-15
1819.51,-1239.5598,5.9241366e-15
1821.1865,-1256.5221,5.572804e-15
1822.8629,-1273.6831,6.2462505e-15
1824.5394,-1291.037,5.651421e-15
1826.2157,-1308.5886,5.436341e-15
1827.8923,-1326.3479,5.2294095e-15
1829.5686,-1344.301,5.321167e-15
1831.2452,-1362.4656,5.0079057e-15
1832.9215,-1380.8268,5.080851e-15
1834.598,-1399.4038,5.208329e-15
1836.2744,-1418.1823,5.2048925e-15
1837.9508,-1437.1782,5.120634e-15
1839.6272,-1456.3842,5.020594e-15
1841.3037,-1475.8079,5.0994386e-15
1842.9801,-1495.4456,4.944409e-15
1844.6566,-1515.3015,4.8829014e-15
1846.333,-1535.3806,4.950144e-15
1848.0094,-1555.6794,4.997306e-15
1849.6859,-1576.2037,4.792126e-15
1851.3623,-1596.9581,5.0445102e-15
1853.0387,-1617.9329,5.1216677e-15
1854.7152,-1639.146,5.0156256e-15
1856.3916,-1660.584,5.225493e-15
1858.0679,-1682.2592,5.410174e-15
1859.7445,-1704.1729,5.471506e-15
1861.4208,-1726.3224,5.387803e-15
1863.0974,-1748.7175,5.174937e-15
1864.7737,-1771.3456,5.012068e-15
1866.4502,-1794.2234,4.965054e-15
1868.1266,-1817.3435,5.250651e-15
1869.8031,-1840.7179,5.3683635e-15
1871.4794,-1864.3353,5.4509196e-15
1873.156,-1888.2135,6.0106517e-15
1874.8323,-1912.3424,5.5113876e-15
1876.5088,-1936.7262,5.6615475e-15
1878.1852,-1961.3704,5.5289872e-15
1879.8616,-1986.2747,5.5320874e-15
1881.5381,-2011.4453,5.5528524e-15
1883.2145,-2036.8733,5.6226627e-15
1884.8909,-2062.5798,5.907393e-15
1886.5674,-2088.5474,6.2168504e-15
1888.2438,-2114.7866,6.3016033e-15
1889.9202,-2141.3057,6.5892036e-15
1891.5967,-2168.0957,6.72041e-15
1893.2731,-2195.1665,6.584345e-15
1894.9496,-2222.5164,6.557428e-15
1896.626,-2250.1511,6.316049e-15
1898.3024,-2278.069,6.0751786e-15
1899.9788,-2306.2686,5.8459724e-15
1901.6553,-2334.771,5.9806794e-15
1903.3315,-2363.5474,6.0640524e-15
1905.0082,-2392.6348,6.1846322e-15
1906.6844,-2422.008,6.186044e-15
1908.361,-2451.689,6.059397e-15
1910.0374,-2481.6597,6.0564423e-15
1911.7139,-2511.9424,6.2211224e-15
1913.3903,-2542.5288,6.3962956e-15
1915.0668,-2573.4216,6.4045267e-15
1916.743,-2604.6233,6.1067734e-15
1918.4197,-2636.1443,6.3351576e-15
1920.096,-2667.9695,8.034881e-15
1921.7723,-2700.1252,7.559704e-15
1923.4489,-2732.5898,7.3147775e-15
1925.1252,-2765.382,7.392259e-15
1926.8016,-2798.4937,8.9060746e-15
1928.4781,-2831.9458,7.791039e-15
1930.1545,-2865.7122,5.8491077e-15
1931.831,-2899.8237,5.649144e-15
1933.5074,-2934.2598,5.5889385e-15
1935.1838,-2969.0403,5.6418993e-15
1936.8604,-3004.1533,5.7532168e-15
1938.5367,-3039.617,5.8860095e-15
1940.2131,-3075.419,6.0161858e-15
1941.8895,-3111.5693,6.1316656e-15
1943.566,-3148.0664,6.3307204e-15
1945.2424,-3184.9248,6.280039e-15
1946.919,-3222.1282,6.1729686e-15
1948.5952,-3259.6924,6.083943e-15
1950.2719,-3297.6223,6.0641964e-15
1951.9481,-3335.907,6.0856022e-15
1953.6246,-3374.557,6.120447e-15
1955.301,-3413.5828,6.064947e-15
1956.9775,-3452.9734,6.06954e-15
1958.6538,-3492.7332,6.045944e-15
1960.3304,-3532.8875,5.9081014e-15
1962.0067,-3573.3955,5.8727064e-15
1963.6832,-3614.2974,5.866501e-15
1965.3596,-3655.583,5.9709855e-15
1967.036,-3697.2551,6.1265194e-15
1968.7125,-3739.3157,6.192582e-15
1970.3889,-3781.7683,6.2278593e-15
1972.0653,-3824.6084,6.225715e-15
1973.7418,-3867.8638,6.123982e-15
1975.4182,-3911.498,6.1143438e-15
1977.0946,-3955.5474,6.1152907e-15
1978.7711,-4000.0,6.2431796e-15
